G:\BEAR_storage\User_Experiments\20220317_arneodo\Tmp\file(1)_tmp_0034.txt
Ring Energy (GeV): 2
Lifetime (hours): 14.7467
Scan beginning: 3/18/2022	4:01:07 PM
Ring current (mA): 309.21
Source position: x (mm): 0.004 x' (mrad): -0.001 y (mm): 0.007 y' (mrad): 0
Scan end: 3/18/2022	4:04:40 PM
Ring current (mA): 309.24
Source position: x (mm): 0.002 x' (mrad): 0.001 y (mm): 0.007 y' (mrad): 0.001

SCAN TYPE: Kinetic Energy Electron analyzer 

FILE INFO: FILE INFO:

SCAN PARAMETERS
waiting time (ms): 1000
Number of scans: 1
Current scan number: 1
DARK OFF 
PREDARK OFF 

SCAN PARAMETERS
Initial Kinetik Energy (eV): 120.000
Final Kinetic Energy (eV): 160.000
Delta Kinetic Energy (eV): 0.500
Pass Energy (eV): 50.000
Number of regions: 1.000
Number of points: 81.00
Initial Z manipulator: -6.600

BEAR MONOCHROMATOR CONFIGURATION: 
Current Grating Position:     -2216.70
Current Mirror Position: 126873.2
Current Grating: G1200
P2 phiz position:  0.0000
Mono axis position: 25.0000
Current Photon Energy (eV): 399.988
Current Deviation Angle: 164.000
Vertical Exit Slits (um): 450.000
Exit slit y axis position: 2.2375
Horizontal Exit Slits (um):  889.156
Exit slit z axis position: 1.9229
Mitutoyo position (mm): 

Dose on sample (mJ/cm^2): NaN

ENERGY CALIBRATION:
offset grating G1200: yes
Delta 0 order G1200:  -800.0
offset grating G1800: not
Delta 0 order G1800:  0.0
offset grating GNIM: not
Delta 0 order GNIM:  0.0
ZERO ORDER POSITIONS:
Grating G1200: Mirror position:  4938.0
Grating position: -105355.0
Grating G1800: 
Mirror position:  4938.0
Grating position: -106345.0
Grating GNIM: 
Mirror position:  10000.0
Grating position: 227300.0

Initial filter: Full Beam

EXPERIMENTAL CHAMBER CONFIGURATION: 
PsiC (deg):   -0.000186
Phi Analyzer (degrees): 89.992308
Theta Manipulator (degrees): -44.000040
Theta Analyzer (degrees): -135.001450
PhiM (degrees): -0.005129
XM (mm): 0.000813
YM (mm): 19.932987
ZM (mm): (Warning: for kinetic energy scans, 
this parameter is given in the scan settings) 
-6.601313
TiltM (°): 0.000138

ELECTRON ANALYZER CONFIGURATION: 
Current Kinetik energy (eV): 141.5
Mode: DE = COST
Pass Energy (eV):  50.000
CEM: ON
Bias Front-Back CEM (V): 3499.561
Bias Back-Collector CEM (V): 100.874
Bias Retard-Front CEM: 100.087COIL VALUES
Ix (amps):2.820
Iy (amps): 6.789
Iz (amps): 37.337

POLARIZATION SELECTOR CONFIGURATION:
Psi1 (rad): -0.001665535
Psi2 (rad): 0.001417093
Z min position (mm): 46.599650
DZ position (mm): 18.599100
Zmin 0 (mm): 66.500000
DZ0 (mm): 53.000000

BEAM SELECTOR CONFIGURATION:
Zmin position (mm): NaN
DZ position (mm): NaN
Y+ position (mm): NaN
Y- position (mm): NaN

CHANNEL ELECTRON MULTIPLIER CONFIGURATION:
CEM configured: OFF
Bias CEM: 0.000000

FLUORESCENCE DETECTOR CONFIGURATION:
Not configured

LUMINESCENCE MONOCHROMATOR CONFIGURATION:
Optical fiber position (mm): 0.000000
Optical fiber Switch inside: OFF
Optical fiber Switch outside: ON
Monochromator wavelength (A): 0.000000
Limit Switches: ON

I0 MONITOR PARAMETERS:
I0 detector position(mm): -1.924999E+2
Lower switch: OFF
Upper switch: OFF
Valve status:open

PRESSURE PARAMETERS:
Monitor chamber pressure (mbar): 9.247e-10
Experimental chamber pressure -ION GAUGE-(mbar): 0.000000E+0

XMCD PARAMETERS:
Xmcd OFF
Xmcd Direction -
Xmcd current (A): 0.000000

Gated scan off

Instrument 1: AMMETER KEITHLEY 6517A B
Measure type: Current
range type: set range value
range value (ampere):  200 pA
Integration time:  set NPLC value
NPLC value: 10.000
Digital filter count: 2
SAMPLE BIAS (V): -30.000
Vsource: ON
Output Voltage value: 30.000
Vsource range: 1000 V

Range Keithley B changed to 20 nA

Range Keithley B changed to 200 pA

Range Keithley B changed to 20 nA

Range Keithley B changed to 200 pA

Range Keithley B changed to 20 nA

Range Keithley B changed to 200 pA

Range Keithley B changed to 20 nA

Range Keithley B changed to 200 nA

Range Keithley B changed to 200 pA

Range Keithley B changed to 20 nA

Range Keithley B changed to 200 pA

Range Keithley B changed to 20 nA

Range Keithley B changed to 200 pA

Range Keithley B changed to 20 nA

Instrument 2: AMMETER KEITHLEY 6517A A
Measure type: Current
range type: set range value
range value (ampere):  200 nA
Integration time:  set NPLC value
NPLC value: 10.000
Digital filter count: 2
Vsource: OFF
Output Voltage value: -0.000
Vsource range: 100 V
Trigger source: bus

Range Keithley A changed to 20 nA

Range Keithley A changed to 200 nA

Range Keithley A changed to 200 pA

Range Keithley A changed to 20 nA

Range Keithley A changed to 200 pA

Range Keithley A changed to 20 nA

Range Keithley A changed to 200 nA

Range Keithley A changed to 200 pA

Range Keithley A changed to 20 nA

Range Keithley A changed to 200 pA

Range Keithley A changed to 20 nA

Range Keithley A changed to 200 nA

Range Keithley A changed to 200 pA

Range Keithley A changed to 20 nA

Range Keithley A changed to 200 pA

Range Keithley A changed to 20 nA

Range Keithley A changed to 200 pA

Range Keithley A changed to 20 nA

Range Keithley A changed to 200 pA

Range Keithley A changed to 20 nA

Range Keithley A changed to 200 pA

Range Keithley A changed to 20 nA

Range Keithley A changed to 200 nA

Range Keithley A changed to 200 pA

Range Keithley A changed to 20 nA

Range Keithley A changed to 200 pA

Range Keithley A changed to 20 nA

Range Keithley A changed to 200 nA

Range Keithley A changed to 200 pA

Range Keithley A changed to 20 nA

Range Keithley A changed to 200 nA

Range Keithley A changed to 200 pA

Range Keithley A changed to 20 nA

Range Keithley A changed to 200 pA

Range Keithley A changed to 20 nA

Range Keithley A changed to 200 pA

Range Keithley A changed to 20 nA

Instrument 3: COUNTER ORTEC 996Integration time (sec): 1.000


________________________________________________________________________________

RelativeTime (msec)	Photon Energy (eV)	Time (msec)	Electron Analyzer Kinetic Energy (eV)	INSTR_1_Sample with Bias _(ampere ) 	INSTR_2_Monitor IM_(ampere)  	INSTR_3_Ortec 996 counts_(counts)	I_BPM_sum (Amps)	
________________________________________________________________________________

4.08300000E+3	3.99988148E+2	1.89943725E+8	1.20000000E+2	1.01110000E-10	3.21298000E-9	2.66000000E+2	8.96199929E-5
8.94600000E+3	3.99988148E+2	1.89948588E+8	1.20500000E+2	1.00530000E-10	3.21124000E-9	2.49000000E+2	8.98972678E-5
1.31500000E+4	3.99988148E+2	1.89952792E+8	1.21000000E+2	1.00690000E-10	3.20986000E-9	2.56000000E+2	8.93935131E-5
1.73210000E+4	3.99988148E+2	1.89956963E+8	1.21500000E+2	1.00880000E-10	3.20884000E-9	2.52000000E+2	8.93279301E-5
2.14540000E+4	3.99988148E+2	1.89961096E+8	1.22000000E+2	1.00770000E-10	3.20780000E-9	2.53000000E+2	8.94070493E-5
2.55920000E+4	3.99988148E+2	1.89965234E+8	1.22500000E+2	1.00510000E-10	3.20704000E-9	2.56000000E+2	8.95479488E-5
2.97240000E+4	3.99988148E+2	1.89969366E+8	1.23000000E+2	1.00360000E-10	3.20613000E-9	2.31000000E+2	8.98111927E-5
3.38930000E+4	3.99988148E+2	1.89973535E+8	1.23500000E+2	1.00580000E-10	3.20553000E-9	2.56000000E+2	8.93275040E-5
3.80680000E+4	3.99988148E+2	1.89977710E+8	1.24000000E+2	1.00560000E-10	3.20474000E-9	2.55000000E+2	8.95824688E-5
4.21680000E+4	3.99988148E+2	1.89981810E+8	1.24500000E+2	1.00420000E-10	3.20407000E-9	2.55000000E+2	8.95508754E-5
4.62990000E+4	3.99988148E+2	1.89985941E+8	1.25000000E+2	1.00360000E-10	3.20346000E-9	2.58000000E+2	8.96645504E-5
5.04340000E+4	3.99988148E+2	1.89990076E+8	1.25500000E+2	1.00480000E-10	3.20289000E-9	2.34000000E+2	8.93364953E-5
5.45750000E+4	3.99988148E+2	1.89994217E+8	1.26000000E+2	1.00710000E-10	3.20239000E-9	2.59000000E+2	8.95903933E-5
5.86780000E+4	3.99988148E+2	1.89998320E+8	1.26500000E+2	1.00600000E-10	3.20197000E-9	2.56000000E+2	8.95610439E-5
6.28110000E+4	3.99988148E+2	1.90002453E+8	1.27000000E+2	1.00610000E-10	3.20148000E-9	2.40000000E+2	8.97062140E-5
6.70150000E+4	3.99988148E+2	1.90006657E+8	1.27500000E+2	1.00390000E-10	3.20095000E-9	2.39000000E+2	8.95210492E-5
7.11570000E+4	3.99988148E+2	1.90010799E+8	1.28000000E+2	1.00480000E-10	3.20040000E-9	2.18000000E+2	8.97294002E-5
7.52880000E+4	3.99988148E+2	1.90014930E+8	1.28500000E+2	1.00310000E-10	3.20013000E-9	2.06000000E+2	8.91185777E-5
7.94280000E+4	3.99988148E+2	1.90019070E+8	1.29000000E+2	1.00300000E-10	3.19962000E-9	2.29000000E+2	8.91272472E-5
8.35960000E+4	3.99988148E+2	1.90023238E+8	1.29500000E+2	1.00390000E-10	3.19915000E-9	2.47000000E+2	8.93310355E-5
8.77690000E+4	3.99988148E+2	1.90027411E+8	1.30000000E+2	1.00510000E-10	3.19856000E-9	2.22000000E+2	8.95013320E-5
9.19030000E+4	3.99988148E+2	1.90031545E+8	1.30500000E+2	1.00300000E-10	3.19823000E-9	2.39000000E+2	8.93276709E-5
9.60440000E+4	3.99988148E+2	1.90035686E+8	1.31000000E+2	1.00250000E-10	3.19783000E-9	2.48000000E+2	8.94827085E-5
1.00228000E+5	3.99988148E+2	1.90039870E+8	1.31500000E+2	1.00480000E-10	3.19746000E-9	3.37000000E+2	8.92976390E-5
1.04407000E+5	3.99988148E+2	1.90044049E+8	1.32000000E+2	1.00220000E-10	3.19717000E-9	3.45000000E+2	8.95298767E-5
1.08520000E+5	3.99988148E+2	1.90048162E+8	1.32500000E+2	1.00450000E-10	3.19659000E-9	3.99000000E+2	8.91344624E-5
1.12649000E+5	3.99988148E+2	1.90052291E+8	1.33000000E+2	1.00340000E-10	3.19629000E-9	4.22000000E+2	8.97481906E-5
1.16807000E+5	3.99988148E+2	1.90056449E+8	1.33500000E+2	1.00270000E-10	3.19585000E-9	4.91000000E+2	8.94841211E-5
1.21034000E+5	3.99988148E+2	1.90060676E+8	1.34000000E+2	1.00000000E-10	3.19566000E-9	4.03000000E+2	8.95756113E-5
1.25199000E+5	3.99988148E+2	1.90064841E+8	1.34500000E+2	1.00270000E-10	3.19518000E-9	4.66000000E+2	8.91488390E-5
1.29352000E+5	3.99988148E+2	1.90068994E+8	1.35000000E+2	1.00140000E-10	3.19478000E-9	4.03000000E+2	8.94373047E-5
1.33497000E+5	3.99988148E+2	1.90073139E+8	1.35500000E+2	1.00620000E-10	3.19445000E-9	3.64000000E+2	8.92677116E-5
1.37666000E+5	3.99988148E+2	1.90077308E+8	1.36000000E+2	1.00430000E-10	3.19395000E-9	3.00000000E+2	8.91258167E-5
1.41804000E+5	3.99988148E+2	1.90081446E+8	1.36500000E+2	1.00310000E-10	3.19369000E-9	2.87000000E+2	8.90394406E-5
1.45989000E+5	3.99988148E+2	1.90085631E+8	1.37000000E+2	1.00140000E-10	3.19318000E-9	2.58000000E+2	8.88770269E-5
1.50164000E+5	3.99988148E+2	1.90089806E+8	1.37500000E+2	1.00080000E-10	3.19306000E-9	2.15000000E+2	8.97496062E-5
1.54323000E+5	3.99988148E+2	1.90093965E+8	1.38000000E+2	1.00140000E-10	3.19256000E-9	2.52000000E+2	8.93674123E-5
1.58461000E+5	3.99988148E+2	1.90098103E+8	1.38500000E+2	1.00400000E-10	3.19237000E-9	2.09000000E+2	8.91564118E-5
1.62592000E+5	3.99988148E+2	1.90102234E+8	1.39000000E+2	1.00080000E-10	3.19196000E-9	2.11000000E+2	8.91297000E-5
1.66743000E+5	3.99988148E+2	1.90106385E+8	1.39500000E+2	1.00140000E-10	3.19309000E-9	2.15000000E+2	8.93334048E-5
1.70898000E+5	3.99988148E+2	1.90110540E+8	1.40000000E+2	1.00350000E-10	3.19654000E-9	2.06000000E+2	8.94645231E-5
1.75065000E+5	3.99988148E+2	1.90114707E+8	1.40500000E+2	1.00580000E-10	3.20172000E-9	2.51000000E+2	8.94471633E-5
1.79188000E+5	3.99988148E+2	1.90118830E+8	1.41000000E+2	1.00590000E-10	3.20347000E-9	2.26000000E+2	8.96540302E-5
1.83368000E+5	3.99988148E+2	1.90123010E+8	1.41500000E+2	1.00740000E-10	3.20312000E-9	2.13000000E+2	8.97851574E-5
1.87515000E+5	3.99988148E+2	1.90127157E+8	1.42000000E+2	1.00430000E-10	3.20287000E-9	1.93000000E+2	8.96168071E-5
1.91643000E+5	3.99988148E+2	1.90131285E+8	1.42500000E+2	1.00450000E-10	3.20260000E-9	2.05000000E+2	8.93316375E-5
1.95778000E+5	3.99988148E+2	1.90135420E+8	1.43000000E+2	1.00840000E-10	3.20217000E-9	2.30000000E+2	8.96816420E-5
1.99937000E+5	3.99988148E+2	1.90139579E+8	1.43500000E+2	1.00910000E-10	3.20177000E-9	2.03000000E+2	8.97986847E-5
2.04081000E+5	3.99988148E+2	1.90143723E+8	1.44000000E+2	1.00520000E-10	3.20146000E-9	2.01000000E+2	8.96824586E-5
2.08187000E+5	3.99988148E+2	1.90147829E+8	1.44500000E+2	1.00430000E-10	3.20122000E-9	2.16000000E+2	8.96244871E-5
